"#phase","CV^2","1/E[YFP]]"
0.30000000000000004,0.005095526976569068,0.004418488342950281
0.31000000000000005,0.005097610969835003,0.005159237147266764
0.32000000000000006,0.005103042113160979,0.005797777081202296
0.33000000000000007,0.005111438256923009,0.006340955790007119
0.34,0.005122417251497107,0.0067956209189314765
0.35000000000000003,0.005135596947259284,0.007168620113225618
0.36000000000000004,0.005150595194585556,0.007466801018139783
0.37000000000000005,0.0051670298438519354,0.007697011278924219
0.38000000000000006,0.005184518745434435,0.007866098540829168
0.39,0.005202679749709068,0.007980910449104876
0.4,0.0052211307070518485,0.008048294649001586
0.41000000000000003,0.005239489467838789,0.008075098785769544
0.42000000000000004,0.005257373882445904,0.008068170504658995
0.43000000000000005,0.005274401801249205,0.00803435745092018
0.44000000000000006,0.005290191074624706,0.007980507269803346
0.45000000000000007,0.00530435955294842,0.007913467606558738
0.4600000000000001,0.005316525086596362,0.007840086106436599
0.4700000000000001,0.005326305525944543,0.007767210414687174
0.48000000000000004,0.005333318721368978,0.007701688176560707
0.49000000000000005,0.00533718252324568,0.007650367037307443
0.5,0.00533751478195066,0.007620094642177625
0.51,0.005326372445162017,0.007825328778522416
0.52,0.005311392502480827,0.008052724516636542
0.53,0.005292651040810249,0.008296547068915645
0.54,0.005270224147053444,0.008551061647755372
0.55,0.00524418790811357,0.008810533465551364
0.56,0.005214618410893789,0.009069227734699262
0.5700000000000001,0.00518159174229726,0.009321409667594715
0.5800000000000001,0.005145183989227142,0.009561344476633364
0.5900000000000001,0.005105471238586596,0.009783297374210851
0.6000000000000001,0.005062529577278781,0.009981533572722821
0.6100000000000001,0.005018842764819869,0.010009475495839224
0.6200000000000001,0.004971933295947704,0.010010767071270833
0.6300000000000001,0.004921731338013142,0.009988209438002727
0.6400000000000001,0.004868167058367038,0.009944603735019986
0.6500000000000001,0.00481117062436025,0.009882751101307687
0.66,0.004750672203343634,0.009805452675850913
0.67,0.004686601962668043,0.009715509597634741
0.68,0.004618890069684334,0.00961572300564425
0.6900000000000001,0.004547466691743365,0.00950889403886452
0.7000000000000001,0.00447226199619599,0.009397823836280631
0.7100000000000001,0.004382095525037299,0.009316236832381669
0.72,0.004288681442207598,0.009234136731527252
0.73,0.004192623286291424,0.009152450533581002
0.74,0.004094524595873318,0.009072105238406547
0.75,0.003994988909537818,0.008994027845867508
0.76,0.003894619765869463,0.008919145355827511
0.77,0.003794020703452792,0.008848384768150181
0.78,0.0036937952608723434,0.008782673082699144
0.79,0.0035945469767126566,0.00872293729933802
0.8,0.0034968793895582702,0.008670104417930436
0.81,0.0034076546780874998,0.008697886299762338
0.8200000000000001,0.003320838429270272,0.008730013879552462
0.8300000000000001,0.0032366548701702916,0.008763002953441871
0.8400000000000001,0.0031553282278512624,0.008793369317571622
0.8500000000000001,0.0030770827293768884,0.008817628768082775
0.8600000000000001,0.0030021426018108734,0.00883229710111639
0.8700000000000001,0.0029307320722169214,0.008833890112813528
0.88,0.002863075367658737,0.008818923599315246
0.89,0.0027993967152000225,0.008783913356762606
0.9,0.002739920341904483,0.008725375181296666
0.91,0.0026884538651354636,0.00847059800136438
0.92,0.0026414209464873514,0.008195580654600557
0.93,0.002598828637854176,0.007907095110945898
0.9400000000000001,0.0025606839911299644,0.0076119133403411065
0.9500000000000001,0.0025269940582087467,0.007316807312726883
0.9600000000000001,0.002497765890984551,0.007028548998043931
0.9700000000000001,0.0024730065413514067,0.006753910366232953
0.9800000000000001,0.0024527230612033414,0.00649966338723465
0.9900000000000001,0.0024369225024343847,0.006272580030989726
1.,0.002425611916938565,0.006079432267438884
1.01,0.0024160566462319223,0.0060354763233400385
1.02,0.002411171616851807,0.0060324251083732116
1.03,0.00241113004495758,0.006070475789035636
1.04,0.0024161051467086023,0.006149825531824547
1.05,0.0024262701382642355,0.006270671503237179
1.06,0.0024417982357838406,0.006433210869770766
1.07,0.002462862655426779,0.0066376407979225425
1.08,0.0024896366133524126,0.006884158454189744
1.09,0.0025222933257201016,0.007172961005069604
1.1,0.0025610060086892084,0.007504245617059357
1.11,0.0026065970758972997,0.008027265140726183
1.12,0.002658551200723822,0.008584127380674949
1.1300000000000001,0.0027170022540264262,0.00916599582558047
1.1400000000000001,0.0027820841066627643,0.009764033964117562
1.15,0.002853930629490487,0.010369405284961022
1.1600000000000001,0.0029326756933672504,0.010973273276785708
1.17,0.0030184531691507,0.011566801428266377
1.1800000000000002,0.0031113969276984946,0.012141153228077897
1.19,0.0032116408398682786,0.012687492164895032
1.2000000000000002,0.003319318776517712,0.013196981727392641
1.21,0.0034449434613076277,0.013546517872448555
1.2200000000000002,0.0035776408909104864,0.013848456925491956
1.23,0.003716915914801917,0.014100887680155017
1.2400000000000002,0.003862273382457571,0.014301898930069968
1.25,0.004013218143353077,0.014449579468868993
1.26,0.004169255046964084,0.01454201809018431
1.27,0.004329888942766229,0.014577303587648117
1.28,0.004494624680235154,0.014553524754892622
1.29,0.004662967108846497,0.014468770385550025
1.3,0.0048344210780759,0.014321129273252532
1.31,0.0050137412707866435,0.013960643116865233
1.32,0.005194864531346264,0.013542420355985452
1.33,0.005376977537509939,0.013073522335443403
1.34,0.0055592669670328455,0.012561010400069296
1.35,0.005740919497670159,0.01201194589469334
1.36,0.005921121807177058,0.011433390164145749
1.37,0.006099060573308721,0.010832404553256732
1.3800000000000001,0.006273922473820323,0.010216050406856502
1.3900000000000001,0.006444894186467041,0.00959138906977527
1.4000000000000001,0.006611162389004054,0.008965481886843244
1.4100000000000001,0.006781927402513149,0.008295579365536026
1.4200000000000002,0.006945755373948552,0.0076415725266659905
1.4300000000000002,0.0071012260935911006,0.007013541553690902
1.4400000000000002,0.007246919351721632,0.0064215666300685235
1.4500000000000002,0.007381414938620982,0.005875727939256618
1.46,0.007503292644569988,0.005386105664712959
1.47,0.007611132259849489,0.004962779989895288
1.48,0.007703513574740322,0.004615831098261381
1.49,0.007779016379523323,0.004355339173269
1.5,0.00783622046447933,0.004191384398375909
1.51,0.007842956165572746,0.004497246876358946
1.52,0.007830416330692747,0.004897794755034433
1.53,0.007799044353412075,0.005381096101537763
1.54,0.007749283627303472,0.005935218983004332
1.55,0.007681577545939679,0.0065482314665695355
1.56,0.007596369502893439,0.007208201619368769
1.57,0.0074941028917374945,0.007903197508537426
1.58,0.0073752211060445876,0.008621287201210904
1.59,0.007240167539387459,0.009350538764524597
1.6,0.007089385585338852,0.0100790202656139
1.61,0.006890754872332958,0.01075742093478942
1.62,0.006679256120604619,0.011413453060061328
1.6300000000000001,0.006457306285250124,0.012037450092615006
1.6400000000000001,0.006227322321365764,0.012619745483635836
1.6500000000000001,0.005991721184047831,0.013150672684309202
1.6600000000000001,0.005752919828392614,0.013620565145820484
1.6700000000000002,0.005513335209496403,0.014019756319355066
1.6800000000000002,0.005275384282455491,0.01433857965609833
1.6900000000000002,0.005041484002366165,0.014567368607235658
1.7000000000000002,0.00481405132432472,0.014696456623952433
1.71,0.00463849552300752,0.014309105462856969
1.72,0.004471635638804712,0.013827391281504259
1.73,0.004313283031686524,0.013266318542872243
1.74,0.004163249061623182,0.012640891709938854
1.75,0.004021345088584912,0.011966115245682023
1.76,0.003887382472541938,0.011256993613079684
1.77,0.0037611725734644865,0.01052853127510977
1.78,0.0036425267513227827,0.009795732694750212
1.79,0.0035312563660870526,0.009073602334978944
1.8,0.0034271727777275213,0.008377144658773898
1.81,0.003331626288805939,0.008037974983251085
1.82,0.003242796047453036,0.007735298380635928
1.83,0.003160400144391066,0.007464930777291934
1.84,0.0030841566703422828,0.007222688099582606
1.85,0.003013783716028941,0.007004386273871446
1.86,0.0029489993721732955,0.006805841226521958
1.87,0.0028895217294976003,0.0066228688838976466
1.8800000000000001,0.002835068878724109,0.0064512851723620155
1.8900000000000001,0.002785358910575077,0.006286906018278566
1.9000000000000001,0.0027401099157727577,0.0061255473480108045
1.9100000000000001,0.002693534751191548,0.005806040038652861
1.9200000000000002,0.002651190391937793,0.0054906993112478755
1.9300000000000002,0.002613128579269982,0.005184855337569618
1.9400000000000002,0.002579401054446603,0.004893838289391856
1.9500000000000002,0.0025500595587261434,0.004622978338488359
1.9600000000000002,0.0025251558333670918,0.004377605656632895
1.97,0.0025047416196279366,0.004163050415599237
1.98,0.0024888686587671654,0.0039846427871611445
1.99,0.0024775886920432666,0.0038477129430923903
2.,0.002470953460714728,0.003757591055166744
2.01,0.0024682757400507817,0.003888296260102579
2.02,0.002470391023116703,0.004066246191096059
2.0300000000000002,0.0024773958369885105,0.0042865474462879406
2.04,0.0024893867087422226,0.004544306623818974
2.05,0.0025064601654538584,0.0048346303218299285
2.06,0.002528712734199438,0.0051526251384615826
2.0700000000000003,0.002556240942054979,0.005493397671854685
2.08,0.0025891413160964993,0.005852054520149981
2.09,0.0026275103834000183,0.006223702281488249
2.1,0.002671444671041557,0.006603447554010266
2.1100000000000003,0.0027228092974661815,0.00694686987653382
2.12,0.0027798250110251587,0.007290998485875524
2.13,0.0028424811514388103,0.007633335559529058
2.14,0.002910767058427459,0.007971383274988109
2.1500000000000004,0.00298467207171142,0.008302643809746327
2.16,0.003064185531011009,0.008624619341297369
2.17,0.0031492967760465484,0.008934812047134918
2.18,0.0032399951465383607,0.009230724104752652
2.1900000000000004,0.003336269982206762,0.00950985769164423
2.2,0.0034381106227720656,0.009769714985303305
2.21,0.0035499273931211555,0.01001165499209187
2.2199999999999998,0.003667020709312847,0.010229089313431144
2.23,0.003789111972572522,0.010419286379610664
2.24,0.003915922584125551,0.010579514620919947
2.25,0.0040471739451973035,0.010707042467648515
2.26,0.0041825874570131615,0.010799138350085908
2.27,0.004321884520798507,0.010853070698521653
2.2800000000000002,0.0044647865377787106,0.010866107943245275
2.29,0.00461101490917914,0.010835518514546304
2.3,0.004760291036225178,0.01075857084271427
2.3100000000000005,0.00491771878018655,0.010496782933026624
2.3200000000000003,0.005077310872544611,0.010191400939270566
2.33,0.005238462504825096,0.00984792059022119
2.34,0.005400568868553723,0.009471837614653601
2.3499999999999996,0.0055630251552562125,0.00906864774134291
2.3600000000000003,0.005725226556458298,0.008643846699064182
2.37,0.005886568263685669,0.008202930216592602
2.38,0.006046445468464059,0.007751394022703242
2.3899999999999997,0.006204253362319188,0.007294733846171208
2.4000000000000004,0.006359387136776791,0.006838445415771568
2.41,0.006523376550196377,0.006351388566549539
2.42,0.006682746798976902,0.005877915278205915
2.4299999999999997,0.006836157646351125,0.00542574163671156
2.4400000000000004,0.00698226885555182,0.0050025837280373
2.45,0.007119740189811721,0.004616157638154074
2.46,0.007247231412363602,0.004274179453032708
2.4699999999999998,0.007363402286440224,0.003984365258644063
2.4800000000000004,0.007466912575274354,0.0037544311409589866
2.49,0.007556422042098736,0.003592093185948382
2.5,0.00763059045014614,0.00350506747958309
2.51,0.007670277935601814,0.0037100505375773987
2.5200000000000005,0.007693022654021639,0.003993112535568266
2.5300000000000002,0.007698563133913977,0.004349304078935992
2.54,0.007686637903787199,0.004773675773060954
2.55,0.007656985492149672,0.005261278223323503
2.5600000000000005,0.007609344427509758,0.005807162035104044
2.5700000000000003,0.0075434532383758315,0.006406377813782832
2.58,0.007459050453256258,0.007053976164740268
2.59,0.007355874600659403,0.007745007693356704
2.6000000000000005,0.007233664209093623,0.008474523005012558
2.6100000000000003,0.00704239657538498,0.009465391463610563
2.62,0.006834587291947332,0.010471037718522407
2.63,0.006612990719512214,0.011472705177642241
2.6399999999999997,0.006380361218811164,0.012451637248864202
2.6500000000000004,0.006139453150575698,0.013389077340082513
2.66,0.005893020875537399,0.014266268859191154
2.67,0.005643818754427783,0.015064455214084347
2.6799999999999997,0.00539460114797839,0.015764879812656233
2.6900000000000004,0.005148122416920733,0.016348786062801
2.7,0.004907136921986397,0.01679741737241269
2.71,0.004719758231374868,0.016489315012754104
2.7199999999999998,0.004540632455472868,0.01604495193057086
2.7300000000000004,0.004369764912135071,0.015482098935977129
2.74,0.004207160919216203,0.014818526839087232
2.75,0.004052825794570936,0.014072006450015355
2.76,0.003906764856053964,0.013260308578875715
2.7700000000000005,0.0037689834215199666,0.012401204035782463
2.7800000000000002,0.003639486808823659,0.011512463630849975
2.79,0.0035182803358197214,0.010611858174192402
2.8,0.003405369320362844,0.009717158475923969
2.8100000000000005,0.003306950065694313,0.009121866744448214
2.8200000000000003,0.0032164616930466846,0.008551311397754394
2.83,0.003133534309039088,0.008006552252120947
2.84,0.0030577980202906646,0.00748864912382638
2.8500000000000005,0.002988882933420547,0.006998661829149154
2.8600000000000003,0.0029264191550478886,0.006537650184367862
2.87,0.002870036791791822,0.006106674005760962
2.88,0.002819365950271488,0.005706793109606962
2.8899999999999997,0.002774036737106026,0.0053390673121843655
2.9000000000000004,0.002733679258914573,0.005004556429771649
2.91,0.0026929111065291896,0.004725985192534333
2.92,0.002656678691191679,0.004481435477779879
2.9299999999999997,0.0026249159083567624,0.004270654076702731
2.9400000000000004,0.002597556653479159,0.0040933877804973234
2.95,0.0025745348220135933,0.0039493833803581355
2.96,0.002555784309414785,0.0038383876674795963
2.9699999999999998,0.0025412390111374545,0.003760147433056153
2.9800000000000004,0.0025308328226363217,0.00371440946828225
2.99,0.00252449963936611,0.003700920564352342
3.,0.0025221733567815387,0.0037194275124608715
3.01,0.002520114801920186,0.00379344410939383
3.0200000000000005,0.002522153548861016,0.0038975097161728246
3.0300000000000002,0.0025284461032658483,0.004029930699410978
3.04,0.0025391489707965037,0.004189013425721439
3.05,0.002554418657114803,0.0043730642617173495
3.0600000000000005,0.0025744116678825682,0.00458038957401187
3.0700000000000003,0.0025992845087616165,0.004809295729218105
3.08,0.0026291936854137697,0.005058089093949214
3.09,0.002664295703500849,0.005325076034818336
3.1000000000000005,0.0027047470686846777,0.005608562918438641
3.1100000000000003,0.002753530930981716,0.0059461951793327965
3.12,0.002807805839920071,0.0062945559302704755
3.13,0.0028675569893824955,0.006649567351930907
3.1399999999999997,0.0029327695732517395,0.007007151624993317
3.1500000000000004,0.0030034287854105615,0.007363230930136968
3.16,0.003079519819741699,0.007713727448041023
3.17,0.0031610278701279105,0.00805456335938474
3.1799999999999997,0.003247938130451946,0.008381660844847347
3.1900000000000004,0.003340235794596565,0.008690942085108101
3.2,0.003437906056444503,0.008978329260846173
3.21,0.0035448044144172413,0.009191729317706385
3.2199999999999998,0.0036568111939473706,0.009377989685646907
3.2300000000000004,0.0037736770250062146,0.009535942559591495
3.24,0.0038951525375650665,0.009664420134463858
3.25,0.004020988361595249,0.009762254605187749
3.26,0.004150935127068076,0.009828278166686907
3.2700000000000005,0.0042847434639548725,0.009861323013885074
3.2800000000000002,0.004422164002226929,0.00986022134170598
3.29,0.004562947371855569,0.009823805345073369
3.3,0.004706844202812107,0.009750907218910981
3.3100000000000005,0.0048593521652078465,0.009570969476183466
3.3200000000000003,0.005014126543411069,0.009356419429043908
3.33,0.0051705696619300705,0.009110294707686283
3.34,0.005328083845273136,0.008835632942304574
3.3500000000000005,0.005486071417948565,0.008535471763092741
3.3600000000000003,0.005643934704464612,0.008212848800244824
3.37,0.005801076029329578,0.00787080168395478
3.38,0.005956897717051745,0.007512368044416597
3.3899999999999997,0.006110802092139399,0.007140585511824259
3.4000000000000004,0.0062621914791008365,0.006758491716371718
3.41,0.006420763664259914,0.0062781729375733925
3.42,0.006575001542926567,0.00579913035937436
3.4299999999999997,0.006723683472226318,0.0053299138150401035
3.4400000000000004,0.0068655878092846985,0.004879073137836058
3.45,0.006999492911227205,0.004455158161027786
3.46,0.007124177135179372,0.004066718717880722
3.4699999999999998,0.007238418838266719,0.003722304641660348
3.4800000000000004,0.007340996377614777,0.0034304657656321165
3.49,0.007430688110349047,0.0031997519230615584
3.5,0.0075062723935950615,0.0030387129472141247
3.51,0.00755416054305994,0.003122238412461404
3.5200000000000005,0.007586247474949327,0.003282457214532109
3.5300000000000002,0.007602061064050459,0.0035178379902610158
3.54,0.007601129185150582,0.003826849376482941
3.55,0.007582979713036938,0.00420796001003269
3.5600000000000005,0.0075471405224967645,0.004659638527745112
3.5700000000000003,0.007493139488317311,0.005180353566454933
3.58,0.007420504485285817,0.005768573762996993
3.59,0.007328763388189525,0.006422767754206098
3.6000000000000005,0.007217444071815665,0.00714140417691712
3.6100000000000003,0.007032376142667262,0.008291593655524752
3.62,0.006830040184317864,0.00948082090066383
3.63,0.006613218512056785,0.010685212610529174
3.6399999999999997,0.006384693441173343,0.011880895483315595
3.6500000000000004,0.006147247286956833,0.013043996217217996
3.66,0.005903662364696615,0.01415064151043098
3.67,0.0056567209896819836,0.015176958061149458
3.6799999999999997,0.005409205477202257,0.016099072567568234
3.6900000000000004,0.005163898142546731,0.01689311172788218
3.7,0.004923581301004764,0.01753520224028596
3.71,0.004736531348264855,0.01728239356295317
3.7199999999999998,0.0045572793022232265,0.01687347007288907
3.7300000000000004,0.004385850261175291,0.016328138907077582
3.74,0.004222269323416504,0.015666107202502777
3.75,0.004066561587242278,0.014907082096148582
3.76,0.003918752150948036,0.014070770724998977
3.7700000000000005,0.0037788661128291953,0.013176880226037852
3.7800000000000002,0.0036469285711812046,0.012245117736249339
3.79,0.003522964624299477,0.011295190392617336
3.8,0.0034069993704794396,0.010346805332125817
3.8100000000000005,0.0033045307038916103,0.009722744290677477
3.8200000000000003,0.0032097792423578415,0.009121271648827409
3.83,0.0031224383995750588,0.008543726386049288
3.84,0.0030422015892401975,0.00799144748181686
3.8500000000000005,0.0029687622250501857,0.007465773915603824
3.8600000000000003,0.0029018137207019725,0.00696804466688402
3.87,0.0028410494898924855,0.006499598715131143
3.88,0.0027861629463186597,0.006061775039818939
3.8899999999999997,0.0027368475036774306,0.005655912620421152
3.9000000000000004,0.00269279657566573,0.005283350436411496
3.91,0.0026492836481923792,0.004961507850908619
3.92,0.0026106899371538313,0.004674668891035647
3.9299999999999997,0.002576976730658423,0.004423197967560577
3.9400000000000004,0.002548105316814488,0.004207459491251389
3.95,0.002524036983730368,0.004027817872876117
3.96,0.0025047330195143965,0.00388463752320274
3.9699999999999998,0.0024901547122749093,0.0037782828529992537
3.9800000000000004,0.0024802633501202426,0.003709118273033651
3.99,0.0024750202211587346,0.0036775081940739417
4.,0.00247438661349872,0.0036838170268881157
4.01,0.0024766474821236654,0.0037746339816163658
4.0200000000000005,0.00248354204421374,0.0039012971666622515
4.03,0.00249513318382424,0.004061369489801494
