"#phase","CV^2","1/E[YFP]]"
0.30000000000000004,0.0011662233722048543,0.01181147607757462
0.31000000000000005,0.0011894123994662473,0.012197503355969003
0.32000000000000006,0.0012098668699318583,0.01255287652899571
0.33000000000000007,0.0012277194204339114,0.012879962431427763
0.34,0.00124310268780463,0.013181127898038186
0.35000000000000003,0.001256149308876238,0.01345873976360001
0.36000000000000004,0.0012669919204809595,0.013715164862886257
0.37000000000000005,0.001275763159451018,0.01395277003066995
0.38000000000000006,0.0012825956626186371,0.014173922101724115
0.39,0.001287622066816041,0.014380987910821777
0.4,0.0012909750088754533,0.014576334292735962
0.41000000000000003,0.0012927871256290977,0.014762328082239694
0.42000000000000004,0.001293191053909198,0.014941336114105997
0.43000000000000005,0.0012923194305479782,0.015115725223107897
0.44000000000000006,0.001290304892377662,0.015287862244018418
0.45000000000000007,0.001287280076230473,0.015460114011610586
0.4600000000000001,0.001283377618938635,0.015634847360657424
0.4700000000000001,0.0012787301573343717,0.01581442912593196
0.48000000000000004,0.0012734703282499074,0.01600122614220722
0.49000000000000005,0.0012677307685174655,0.01619760524425622
0.5,0.0012616441149692697,0.016405933266851993
0.51,0.0012612772168772133,0.016625658831739304
0.52,0.0012604688493950827,0.016862243848115084
0.53,0.0012589920001163343,0.017118232012148016
0.54,0.0012566196566344235,0.017396167020006778
0.55,0.0012531248065428065,0.01769859256786004
0.56,0.0012482804374349392,0.018028052351876486
0.5700000000000001,0.0012418595369042777,0.01838709006822479
0.5800000000000001,0.0012336350925442779,0.018778249413073624
0.5900000000000001,0.0012233800919483956,0.019204074082591675
0.6000000000000001,0.0012108675227100866,0.019667107772947615
0.6100000000000001,0.0011878463702859002,0.02044339052063078
0.6200000000000001,0.0011625999275660117,0.021245394145712176
0.6300000000000001,0.0011353874853036895,0.022059086808583473
0.6400000000000001,0.0011064683342522025,0.02287043666963634
0.6500000000000001,0.0010761017651648188,0.023665411889262446
0.66,0.0010445470687948074,0.024429980627853443
0.67,0.001012063535895436,0.02515011104580102
0.68,0.0009789104572199736,0.025811771303496836
0.6900000000000001,0.0009453471235216885,0.02640092956133256
0.7000000000000001,0.0009116328255538494,0.026903553979699856
0.7100000000000001,0.0008802899358396322,0.027002642148719544
0.72,0.0008491775068914948,0.02700549465179783
0.73,0.0008184176729918015,0.026916441502070065
0.74,0.0007881325684229175,0.026739812712671607
0.75,0.000758444327467208,0.026479938296737813
0.76,0.0007294750844070378,0.02614114826740404
0.77,0.0007013469735247721,0.025727772637805634
0.78,0.0006741821291027757,0.025244141421077962
0.79,0.0006481026854234139,0.02469458463035637
0.8,0.0006232307767690513,0.02408343227877622
0.81,0.0006017673266982527,0.0232437684636793
0.8200000000000001,0.0005816296929883227,0.022361547654345656
0.8300000000000001,0.0005628140226927661,0.021451478404261773
0.8400000000000001,0.0005453164628650873,0.020528269266914118
0.8500000000000001,0.0005291331605587905,0.019606628795789185
0.8600000000000001,0.0005142602628273803,0.018701265544373444
0.8700000000000001,0.0005006939167243611,0.01782688806615338
0.88,0.0004884302693032376,0.016998204914615487
0.89,0.00047746546761751366,0.016229924643246216
0.9,0.0004677956587206941,0.015536755805532066
0.91,0.0004598816016712884,0.015266871601715795
0.92,0.00045322667321446225,0.015081305959936312
0.93,0.0004477988621003864,0.014974557455088808
0.9400000000000001,0.0004435661570792316,0.014941124662068475
0.9500000000000001,0.00044049654690116874,0.0149755061557705
0.9600000000000001,0.00043855802031636857,0.015072200511090076
0.9700000000000001,0.0004377185660750018,0.015225706302922392
0.9800000000000001,0.0004379461729272393,0.01543052210616264
0.9900000000000001,0.00043920882962325184,0.015681146495706007
1.,0.00044147452491321014,0.015972078046447687
1.01,0.000444446803779951,0.016371317468061204
1.02,0.00044837412563596916,0.016795406525828362
1.03,0.00045324050612642543,0.017234389119809304
1.04,0.0004590299608964805,0.01767830915006417
1.05,0.0004657265055912951,0.018117210516653097
1.06,0.0004733141558560299,0.018541137119636227
1.07,0.0004817769273358458,0.0189401328590737
1.08,0.0004910988356759034,0.019304241635025653
1.09,0.0005012638965213634,0.019623507347552232
1.1,0.0005122561255173866,0.01988797389671357
1.11,0.0005247496423032401,0.01982230209261719
1.12,0.000537996534045487,0.019698002748909347
1.1300000000000001,0.0005519389919047967,0.01952120358928367
1.1400000000000001,0.0005665192070418386,0.019298032337433792
1.15,0.0005816793706172817,0.019034616717053355
1.1600000000000001,0.0005973616737917968,0.018737084451835966
1.17,0.0006135083077260517,0.018411563265475286
1.1800000000000002,0.0006300614635807172,0.01806418088166492
1.19,0.0006469633325164615,0.01770106502409853
1.2000000000000002,0.0006641561056939554,0.017328343416469716
1.21,0.0006814683426511131,0.0170179739494867
1.2200000000000002,0.0006989627529363747,0.016706264472736734
1.23,0.0007165884144754234,0.016395353002821692
1.2400000000000002,0.0007342944051939457,0.01608737755634338
1.25,0.0007520298030176247,0.01578447614990367
1.26,0.0007697436858721465,0.015488786800104385
1.27,0.0007873851316831954,0.015202447523547368
1.28,0.0008049032183764564,0.014927596336834461
1.29,0.0008222470238776142,0.014666371256567506
1.3,0.0008393656261123536,0.014420910299348343
1.31,0.0008559896109411872,0.014245502113887703
1.32,0.0008722997902983158,0.014086973440308303
1.33,0.000888258484052768,0.013944301650841744
1.34,0.0009038280120735725,0.013816464117719635
1.35,0.0009189706942297576,0.013702438213173579
1.36,0.0009336488503903521,0.01360120130943518
1.37,0.0009478248004243846,0.013511730778736047
1.3800000000000001,0.0009614608642008836,0.013433003993307782
1.3900000000000001,0.0009745193615888778,0.01336399832538199
1.4000000000000001,0.0009869626124573956,0.013303691147190278
1.4100000000000001,0.000998914578711406,0.013252254440551989
1.4200000000000002,0.0010101661416969708,0.013207398567529912
1.4300000000000002,0.0010206698247960915,0.013168028499774581
1.4400000000000002,0.0010303781513907701,0.013133049208936523
1.4500000000000002,0.0010392436448630087,0.01310136566666627
1.46,0.001047218828594809,0.01307188284461435
1.47,0.001054256225968173,0.013043505714431296
1.48,0.0010603083603651026,0.013015139247767635
1.49,0.0010653277551675997,0.012985688416273898
1.5,0.0010692669337576662,0.012954058191600615
1.51,0.0010718572930780233,0.012799457688143764
1.52,0.0010732858845523344,0.012647742029187491
1.53,0.0010735186331649817,0.01250507048076139
1.54,0.0010725214639003477,0.012377602308895055
1.55,0.0010702603017428154,0.01227149677961808
1.56,0.001066701071676767,0.012192913158960057
1.57,0.0010618096986865849,0.012148010712950581
1.58,0.0010555521077566519,0.012142948707619245
1.59,0.0010478942238713507,0.012183886408995646
1.6,0.0010388019720150633,0.012276983083109374
1.61,0.0010257019619615176,0.012687613442572403
1.62,0.0010112533317973057,0.013147011279766349
1.6300000000000001,0.0009955759043983653,0.013645625833655209
1.6400000000000001,0.0009787895026406339,0.014173906343202975
1.6500000000000001,0.0009610139494000485,0.014722302047373643
1.6600000000000001,0.0009423690675525469,0.015281262185131211
1.6700000000000002,0.0009229746799740662,0.01584123599543967
1.6800000000000002,0.0009029506095405439,0.016392672717263017
1.6900000000000002,0.0008824166791279174,0.016926021589565247
1.7000000000000002,0.0008614927116121242,0.017431731851310354
1.71,0.0008407574194615786,0.01775326843931357
1.72,0.0008198439244692874,0.018036973034211833
1.73,0.0007988442380207353,0.01828220301449329
1.74,0.0007778503715014066,0.018488315758646106
1.75,0.0007569543362967856,0.018654668645158447
1.76,0.0007362481437923565,0.018780619052518467
1.77,0.0007158238053736035,0.018865524359214337
1.78,0.000695773332426011,0.018908741943734216
1.79,0.0006761887363350632,0.018909629184566262
1.8,0.0006571620284862445,0.01886754346019864
1.81,0.0006400304287236355,0.01868535490937329
1.82,0.000623565272794815,0.018464755861824368
1.83,0.0006077831049059587,0.018210951407539807
1.84,0.0005927004692632417,0.01792914663650754
1.85,0.0005783339100728396,0.017624546638715502
1.86,0.0005646999715409276,0.017302356504151625
1.87,0.0005518151978736812,0.01696778132280384
1.8800000000000001,0.0005396961332772758,0.016626026184660084
1.8900000000000001,0.0005283593219578868,0.01628229617970829
1.9000000000000001,0.0005178213081216895,0.01594179639793639
1.9100000000000001,0.000508263185133075,0.01567179225250111
1.9200000000000002,0.0004995269753637475,0.015411667278514393
1.9300000000000002,0.000491619250343627,0.01516286533425697
1.9400000000000002,0.0004845465816026332,0.014926830278009574
1.9500000000000002,0.00047831554067068627,0.014705005968052942
1.9600000000000002,0.0004729326990777059,0.014498836262667803
1.97,0.0004684046283536121,0.014309765020134898
1.98,0.00046473790002832466,0.01413923609873495
1.99,0.00046193908563176353,0.0139886933567487
2.,0.0004600147566938486,0.013859580652456878
2.01,0.00045852474977076693,0.013723096414683186
2.02,0.00045794944621306414,0.013612762987496115
2.0300000000000002,0.0004583224923975531,0.013531857285507133
2.04,0.0004596775347010465,0.013483656223327707
2.05,0.00046204821950035713,0.013471436715569296
2.06,0.00046546819317229806,0.013498475676843364
2.0700000000000003,0.00046997110209368183,0.013568050021761376
2.08,0.00047559059264132113,0.013683436664934788
2.09,0.00048236031119202883,0.013847912520975067
2.1,0.0004903139041226182,0.014064754504493685
2.1100000000000003,0.0005004229527815088,0.014569745141450822
2.12,0.0005117263240301719,0.015119564485936543
2.13,0.0005242008197016872,0.015703398203389684
2.14,0.0005378232416291343,0.01631043195924909
2.1500000000000004,0.0005525703916455917,0.01692985141895354
2.16,0.0005684190715841376,0.017550842247941827
2.17,0.0005853460832778517,0.01816259011165279
2.18,0.000603328228559814,0.018754280675525273
2.1900000000000004,0.0006223423092631026,0.019315099604998054
2.2,0.0006423651272207957,0.019834232565509927
2.21,0.0006639663264525481,0.020119576797480478
2.2199999999999998,0.0006864939367753745,0.020352593568641667
2.23,0.0007098888301928656,0.020533455721706215
2.24,0.0007340918787086102,0.020662336099386815
2.25,0.0007590439543261967,0.020739407544396172
2.26,0.0007846859290492157,0.020764842899447
2.27,0.0008109586748812584,0.020738815007252012
2.2800000000000002,0.0008378030638259129,0.020661496710523905
2.29,0.0008651599678867679,0.020533060851975402
2.3,0.0008929702590674142,0.020353680274319205
2.3100000000000005,0.0009228765587173504,0.020037145019421977
2.3200000000000003,0.0009530148531702601,0.019675246052105893
2.33,0.0009832228781057415,0.019273391536347027
2.34,0.0010133383692033898,0.018836989636121484
2.3499999999999996,0.0010431990621428003,0.018371448515405366
2.3600000000000003,0.0010726426926035708,0.01788217633817473
2.37,0.0011015069962652918,0.017374581268405773
2.38,0.0011296297088075609,0.01685407147007455
2.3899999999999997,0.0011568485659099734,0.016326055107157164
2.4000000000000004,0.0011830013032521271,0.01579594034362967
2.41,0.0012078850749868972,0.015230933034472562
2.42,0.0012313806578070645,0.014676958944111885
2.4299999999999997,0.001253328246878692,0.014141741527978027
2.4400000000000004,0.0012735680373678437,0.013633004241501333
2.45,0.00129194022444058,0.013158470540112283
2.46,0.0013082850032629647,0.012725863879241215
2.4699999999999998,0.0013224425690010614,0.012342907714318521
2.4800000000000004,0.0013342531168209337,0.012017325500774561
2.49,0.0013435568418886422,0.011756840694039782
2.5,0.0013501939393702515,0.01156917674954454
2.51,0.001350536078263268,0.011688672427288375
2.5200000000000005,0.001348102193609496,0.011882701617249568
2.5300000000000002,0.0013429426942821836,0.012145253513975489
2.54,0.001335107989154579,0.012470317312013562
2.55,0.0013246484870999308,0.0128518822059112
2.5600000000000005,0.0013116145969914853,0.01328393739021585
2.5700000000000003,0.0012960567277024934,0.013760472059474844
2.58,0.0012780252881062018,0.01427547540823563
2.59,0.0012575706870758588,0.014822936631045617
2.6000000000000005,0.0012347433334847105,0.015396844922452264
2.6100000000000003,0.0012047857070984916,0.01607754348187918
2.62,0.0011728475355408461,0.016767433922944407
2.63,0.0011392706173279012,0.017455271864142256
2.6399999999999997,0.0011043967509757851,0.01812981292396703
2.6500000000000004,0.0010685677350006227,0.01877981272091308
2.66,0.0010321253679185481,0.019394026873474593
2.67,0.0009954114482456863,0.01996121100014593
2.6799999999999997,0.0009587677744981651,0.020470120719421392
2.6900000000000004,0.0009225361451921093,0.020909511649795317
2.7,0.0008870583588436533,0.021268139409761924
2.71,0.0008582174022079639,0.021165556028545536
2.7199999999999998,0.0008304780559718818,0.020982096689017748
2.7300000000000004,0.0008038462890612881,0.02072889298478011
2.74,0.0007783280704020706,0.020417076509434244
2.75,0.0007539293689201095,0.0200577788565817
2.76,0.0007306561535412881,0.019662131619824056
2.7700000000000005,0.0007085143931914873,0.019241266392762843
2.7800000000000002,0.0006875100567965942,0.018806314768999716
2.79,0.0006676491132824897,0.01836840834213621
2.8,0.0006489375315750569,0.0179386787057739
2.8100000000000005,0.0006322515744209565,0.017736455413375974
2.8200000000000003,0.0006166741718452479,0.017552054040508986
2.83,0.0006021585476937657,0.017383988122601054
2.84,0.0005886579258123455,0.01723077119508032
2.8500000000000005,0.000576125530046822,0.017090916793374905
2.8600000000000003,0.0005645145842430334,0.01696293845291299
2.87,0.0005537783122468141,0.016845349709122694
2.88,0.0005438699379040001,0.016736664097432165
2.8899999999999997,0.0005347426850604271,0.01663539515326954
2.9000000000000004,0.0005263497775619302,0.016540056412062958
2.91,0.0005176143682547212,0.016417511331893442
2.92,0.0005095821805296925,0.016299841712042146
2.9299999999999997,0.0005022688667781117,0.016187479274443094
2.9400000000000004,0.0004956900793912458,0.016080855741030315
2.95,0.0004898614707603635,0.015980402833737847
2.96,0.0004847986932767321,0.015886552274499713
2.9699999999999998,0.00048051739933161906,0.015799735785249944
2.9800000000000004,0.0004770332413162918,0.015720385087922558
2.99,0.0004743618716220185,0.015648931904451602
3.,0.00047251894264006654,0.015585807956771091
3.01,0.0004713604744825706,0.015460650362007314
3.0200000000000005,0.00047107142650351506,0.015348976029011594
3.0300000000000002,0.0004716771257777514,0.015255507261827539
3.04,0.00047320289938013096,0.01518496636449873
3.05,0.0004756740743855053,0.015142075641068753
3.0600000000000005,0.00047911597786872605,0.0151315573955812
3.0700000000000003,0.00048355393690464415,0.015158133932079662
3.08,0.0004890132785681112,0.015226527554607724
3.09,0.0004955193299339788,0.015341460567208975
3.1000000000000005,0.0005030974180770991,0.015507655273927022
3.1100000000000003,0.0005120117376698045,0.015973141944500887
3.12,0.0005220342713653749,0.01648458897996382
3.13,0.0005331758694145719,0.01703197274704455
3.1399999999999997,0.000545447382068157,0.01760526961247179
3.1500000000000004,0.0005588596595768931,0.0181944559429743
3.16,0.0005734235521915393,0.018789508105280694
3.17,0.0005891499101628586,0.019380402466119738
3.1799999999999997,0.0006060495837416124,0.019957115392220143
3.1900000000000004,0.000624133423178564,0.020509623250310673
3.2,0.0006434122787244719,0.02102790240711994
3.21,0.0006646673873456584,0.021331988470966817
3.2199999999999998,0.0006870925224733528,0.021592098006893542
3.2300000000000004,0.0007106518442543451,0.021808506821532472
3.24,0.0007353095128354197,0.021981490721515912
3.25,0.0007610296883633668,0.022111325513476224
3.26,0.0007877765309849749,0.022198287004045757
3.2700000000000005,0.0008155142008470345,0.02224265099985685
3.2800000000000002,0.0008442068580963291,0.02224469330754184
3.29,0.0008738186628796497,0.022204689733733077
3.3,0.0009043137753437841,0.0221229160850629
3.3100000000000005,0.000937854750607018,0.021988578792797198
3.3200000000000003,0.0009720741177857611,0.02181369391016911
3.33,0.0010068028009679265,0.021599208115045294
3.34,0.0010418717242414238,0.021346068085292436
3.3500000000000005,0.001077111811694166,0.021055220498777172
3.3600000000000003,0.001112353987414057,0.020727612033366233
3.37,0.0011474291754890095,0.02036418936692626
3.38,0.0011821683000069335,0.019965899177323936
3.3899999999999997,0.0012164022850557389,0.019533688142425926
3.4000000000000004,0.0012499620547233386,0.019068502940098864
3.41,0.001285177180550501,0.018280821995274307
3.42,0.0013192285059933128,0.017479664375295613
3.4299999999999997,0.0013517955219607225,0.01668358089457098
3.4400000000000004,0.0013825577193616813,0.015911122367508544
3.45,0.0014111945891051318,0.015180839608516643
3.46,0.0014373856221000254,0.014511283432003405
3.4699999999999998,0.0014608103092553105,0.013921004652377032
3.4800000000000004,0.0014811481414799372,0.013428554084045684
3.49,0.0014980786096828501,0.013052482541417647
3.5,0.0015112812047729995,0.012811340838901076
3.51,0.0015136546718420134,0.013342968506227406
3.5200000000000005,0.001512070201908119,0.014009094993068136
3.5300000000000002,0.001506618240172224,0.01479073846441782
3.54,0.0014973892318352357,0.015668917085271183
3.55,0.0014844736220980613,0.016624649020622894
3.5600000000000005,0.0014679618561616063,0.01763895243546772
3.5700000000000003,0.0014479443792267809,0.018692845494800152
3.58,0.001424511636494491,0.019767346363614945
3.59,0.0013977540731656439,0.020843473206906778
3.6000000000000005,0.0013677621344411438,0.021902244189670406
3.6100000000000003,0.0013277282124917187,0.022769218852176382
3.62,0.0012850588693684697,0.023590295718975165
3.63,0.0012402626140923143,0.024355914689893177
3.6399999999999997,0.0011938479556841712,0.02505651566475684
3.6500000000000004,0.0011463234031649544,0.025682538543392634
3.66,0.0010981974655555908,0.026224423225626868
3.67,0.0010499786518769945,0.026672609611286025
3.6799999999999997,0.0010021754711500837,0.027017537600196536
3.6900000000000004,0.000955296432395773,0.027249647092184835
3.7,0.0009098500446349887,0.027359377987077306
3.71,0.0008756284732735283,0.02694187150361329
3.7199999999999998,0.0008432939251059189,0.026406823718529784
3.7300000000000004,0.0008127922633115684,0.025768632027476607
3.74,0.0007840693510698922,0.025041693826103766
3.75,0.000757071051560298,0.024240406510061083
3.76,0.0007317432279621961,0.023379167474998453
3.7700000000000005,0.0007080317434549946,0.022472374116565674
3.7800000000000002,0.0006858824612181084,0.02153442383041279
3.79,0.0006652412444309452,0.020579714012189616
3.8,0.0006460539562729156,0.01962264205754603
3.8100000000000005,0.0006283252978545747,0.01885374635798582
3.8200000000000003,0.0006119387284889685,0.018100608101435104
3.83,0.0005968365454202848,0.017366949471673762
3.84,0.0005829610458927127,0.016656492652481737
3.8500000000000005,0.0005702545271504407,0.015972959827638918
3.8600000000000003,0.0005586592864376601,0.015320073180925372
3.87,0.0005481176209985592,0.01470155489612099
3.88,0.0005385718280773273,0.014121127157005715
3.8899999999999997,0.0005299642049181535,0.013582512147359496
3.9000000000000004,0.0005222370487652267,0.01308943205096224
3.91,0.0005143700832696481,0.012714093386883746
3.92,0.0005073265170622163,0.012387583437839014
3.9299999999999997,0.000501106985180641,0.012109473821832854
3.9400000000000004,0.0004957121226626318,0.011879336156870058
3.95,0.0004911425645458996,0.011696742060955476
3.96,0.0004873989458681535,0.011561263152093899
3.9699999999999998,0.0004844819016671036,0.011472471048290132
3.9800000000000004,0.0004823920669804596,0.011429937367548989
3.99,0.0004811300768459316,0.011433233727875284
4.,0.00048069656630122945,0.011481931747273823
