"#phase","CV^2","1/E[YFP]]"
0.1,0.0017788899133977095,0.00016256882679773865
0.11,0.00175923741229196,-0.00009357340986211843
0.12000000000000001,0.00174604459682119,-0.00024832103949750436
0.13,0.0017389781419879168,-0.00030715659485095587
0.14,0.001737704722794657,-0.0002755626086650084
0.15000000000000002,0.001741891014243928,-0.0001590216136821991
0.16,0.0017512036913382466,0.000036983857354935075
0.17,0.0017653094290801298,0.0003069712717038587
0.18,0.0017838749024720944,0.0006454580966220335
0.19,0.001806566786516658,0.001046961799366925
0.2,0.001833051756216337,0.0015059998471959957
0.21000000000000002,0.0018629964865736488,0.002017089707366709
0.22,0.00189606765259111,0.0025747488471365276
0.23,0.0019319319292712383,0.0031734947337629165
0.24000000000000002,0.0019702559916165503,0.0038078448345033383
0.25,0.0020107065146295626,0.004472316616615254
0.26,0.002052950173312793,0.005161427547356132
0.27,0.002096653642668758,0.005869695093983435
0.28,0.0021414835976999746,0.006591636723754623
0.29000000000000004,0.0021871067134089602,0.007321769903927161
0.30000000000000004,0.0022331896647982317,0.008054612101758514
0.31,0.002283058490042904,0.00848239094182162
0.32,0.0023324987213866784,0.008920234330584807
0.33,0.0023809552542458532,0.009380980331831865
0.33999999999999997,0.0024278729840367273,0.00987746700934659
0.35,0.0024726968061756006,0.010422532426912788
0.36,0.0025148716160787706,0.011029014648314255
0.37,0.0025538423091625373,0.011709751737334784
0.38,0.002589053780843199,0.012477581757758179
0.39,0.002619950926537055,0.013345342773368234
0.4,0.0026459786416604043,0.014325872847948748
0.41000000000000003,0.0026500827979823657,0.01647961555201541
0.42000000000000004,0.0026492072553935195,0.018708312199787885
0.43000000000000005,0.0026437968501372673,0.020961309612217743
0.44000000000000006,0.002634296418457009,0.023187954610256543
0.45000000000000007,0.0026211507965961454,0.025337594014855858
0.45999999999999996,0.0026048048207980776,0.027359574646967214
0.47,0.002585703327306206,0.029203243327542226
0.48,0.0025642911523639316,0.03081794687753243
0.49,0.0025410131322146545,0.03215303211788939
0.5,0.002516314103101776,0.033157845869564676
0.51,0.0024957737112562945,0.032148596031090895
0.52,0.0024743907823287035,0.030806746462348787
0.53,0.002452298951957095,0.02918062210080017
0.54,0.0024296318557795616,0.027318547883906835
0.55,0.0024065231294341945,0.025268848749130587
0.56,0.0023831064085590853,0.023079849633933232
0.5700000000000001,0.0023595153287923262,0.02079987547577657
0.58,0.002335883525772009,0.018477251212122424
0.59,0.002312344635136225,0.016160301780432547
0.6,0.0022890322925230664,0.013897352118168766
0.61,0.0022697941134541106,0.01257817009890342
0.62,0.0022508246639940557,0.011358641182405326
0.63,0.002232032490091085,0.01023609376455382
0.64,0.0022133261376933817,0.009207856241228244
0.65,0.00219461415274913,0.008271257008307947
0.66,0.002175805081206513,0.007423624461672268
0.67,0.0021568074690137143,0.0066622869972005555
0.6799999999999999,0.002137529862118918,0.005984573010772159
0.69,0.0021178808064703063,0.005387810898266409
0.7,0.0020977688480160643,0.004869329055562656
0.71,0.0020739315707834372,0.004460840952640723
0.72,0.002049640662151906,0.0041232059673946
0.73,0.002024996847580014,0.0038516685518187534
0.74,0.0020001008525263046,0.0036414731579076515
0.75,0.0019750534024493213,0.0034878642376557603
0.76,0.0019499552228076078,0.0033860862430575476
0.77,0.0019249070390597069,0.00333138362610748
0.78,0.0019000095766641622,0.003319000838800025
0.79,0.0018753635610795172,0.0033441823331296495
0.8,0.001851069717764315,0.0034021725610908203
0.8099999999999999,0.0018282604505264065,0.0034783962404387513
0.82,0.0018059422805144633,0.0035785126928156038
0.83,0.001784153407226465,0.0036983615056242827
0.84,0.0017629320301603912,0.0038337822662676954
0.85,0.001742316348814221,0.003980614562148748
0.86,0.001722344562685934,0.004134697980670348
0.87,0.0017030548712735094,0.004291872109235401
0.88,0.0016844854740749261,0.004447976535246814
0.89,0.0016666745705881643,0.004598850846107494
0.9,0.0016496603603112026,0.0047403346292203465
0.91,0.0016335882705734823,0.0047692130117530955
0.92,0.0016183827743850687,0.0047863833419641445
0.93,0.0016040755725874893,0.0047936885078767155
0.94,0.0015906983660222709,0.004792971397514029
0.95,0.0015782828555309404,0.004786074898899305
0.96,0.0015668607419550254,0.004774841900055766
0.97,0.0015564637261360527,0.004761115289006631
0.98,0.0015471235089155495,0.004746737953775122
0.99,0.001538871791135043,0.0047335527823844595
1.,0.00153174027363606,0.004723402662857864
1.01,0.0015240881375704568,0.004755186303361586
1.02,0.0015177209682991088,0.004791444964494421
1.03,0.00151277183149322,0.004831775726998194
1.04,0.0015093737928239942,0.0048757756716147314
1.05,0.001507659917962636,0.004923041879085857
1.06,0.0015077632725803494,0.004973171430153396
1.07,0.0015098169223483385,0.005025761405559173
1.08,0.0015139539329378075,0.005080408886045014
1.09,0.0015203073700199602,0.005136710952352744
1.1,0.0015290102992660014,0.005194264685224188
1.11,0.0015425494154534384,0.0052402969026024955
1.12,0.001558561510958911,0.005287524660925057
1.1300000000000001,0.0015770370072653627,0.005336294753830586
1.1400000000000001,0.0015979663258557366,0.0053869539749577975
1.1500000000000001,0.001621339888212976,0.005439849117945407
1.1600000000000001,0.0016471481158200243,0.005495326976432127
1.1700000000000002,0.0016753814301598247,0.005553734344056673
1.1800000000000002,0.001706030252715321,0.00561541801445776
1.1900000000000002,0.0017390850049694559,0.005680724781274102
1.2000000000000002,0.001774536108405173,0.005750001438144413
1.2100000000000002,0.001814665089217437,0.005899945481642041
1.2200000000000002,0.0018570324093461384,0.006049925687141695
1.2300000000000002,0.0019014896354431886,0.00619566153295272
1.2400000000000002,0.0019478883341604995,0.006332872497384456
1.2500000000000002,0.0019960800721499825,0.006457278058746249
1.26,0.0020459164160635487,0.006564597695347436
1.27,0.002097248932553112,0.006650550885497368
1.28,0.002149929188270583,0.006710857107505384
1.29,0.002203808749867873,0.006741235839680826
1.3,0.0022587391839968937,0.006737406560333037
1.31,0.0023174661171337582,0.0065509142883130485
1.32,0.002376771658541074,0.006330390807416291
1.33,0.00243633197730565,0.0060802934419798855
1.34,0.0024958232425142945,0.0058050795163409495
1.35,0.002554921623253816,0.005509206354836604
1.36,0.002613303288611024,0.005197131281803968
1.37,0.002670644407672726,0.004873311621580161
1.3800000000000001,0.002726621149525732,0.004542204698502301
1.3900000000000001,0.0027809096832568493,0.004208267836907509
1.4000000000000001,0.0028331861779528874,0.003875958361132905
1.4100000000000001,0.00288369188405011,0.003513837965827963
1.4200000000000002,0.002931503641931358,0.003164435097725789
1.4300000000000002,0.0029762633733289275,0.0028343825738718444
1.4400000000000002,0.003017612999975115,0.002530313211311591
1.4500000000000002,0.0030551944436022164,0.0022588598270904888
1.4600000000000002,0.0030886496259425276,0.0020266552382540008
1.4700000000000002,0.003117620468728346,0.0018403322618475877
1.4800000000000002,0.003141748893691966,0.001706523714916711
1.4900000000000002,0.003160676822565685,0.0016318624145068327
1.5000000000000002,0.0031740461770817996,0.0016229811776634134
1.51,0.003172629319934382,0.0019880336817860583
1.52,0.003165475280926572,0.002413857892029472
1.53,0.0031527635308232845,0.0028888126339024997
1.54,0.003134673540389435,0.0034012567329139874
1.55,0.00311138478038994,0.003939549014572783
1.56,0.003083076721589715,0.00449204830438773
1.57,0.0030499288347536754,0.005047113427867676
1.58,0.0030121205906467373,0.0055931032105214695
1.59,0.002969831460033816,0.0061183764778579555
1.6,0.002923240913679828,0.00661129205538598
1.61,0.002865610402863846,0.006861511409916012
1.62,0.0028044566917448605,0.007068132989818815
1.6300000000000001,0.002740378524996021,0.0072315578847667724
1.6400000000000001,0.0026739746472904764,0.007352187184432268
1.6500000000000001,0.0026058438033013743,0.007430421978487687
1.6600000000000001,0.0025365847377018646,0.007466663356605415
1.6700000000000002,0.002466796195165095,0.007461312408457834
1.6800000000000002,0.0023970769203642142,0.0074147702237173305
1.6900000000000002,0.002328025657972371,0.007327437892056289
1.7000000000000002,0.0022602411526627146,0.007199716503147093
1.7100000000000002,0.002203265754360337,0.006933960102255138
1.7200000000000002,0.0021482125658045066,0.006634559068575373
1.7300000000000002,0.0020951382949864366,0.0063078567368957585
1.7400000000000002,0.0020440996498973397,0.005960196442004252
1.7500000000000002,0.001995153338528428,0.005597921518688815
1.7600000000000002,0.0019483560688709144,0.005227375301737407
1.77,0.0019037645489160125,0.004854901125937994
1.78,0.001861435486654933,0.004486842326078521
1.79,0.0018214255900788894,0.004129542236946956
1.8,0.0017837915671790946,0.0037893441933312573
1.81,0.0017513247024117796,0.003609095819300203
1.82,0.0017211813953961679,0.003450363173131794
1.83,0.0016932526222165009,0.00331121660238485
1.84,0.0016674293589570206,0.00318972645461819
1.85,0.0016436025817019688,0.003083963077390633
1.86,0.0016216632665355872,0.002991996818260998
1.87,0.0016015023895421176,0.002911898024788104
1.8800000000000001,0.001583010926805802,0.0028417370445307706
1.8900000000000001,0.001566079854410882,0.002779584225047816
1.9000000000000001,0.0015506001484415996,0.002723509913898061
1.9100000000000001,0.0015339959361188459,0.002623424223571886
1.9200000000000002,0.0015187745483819315,0.002528476538821908
1.9300000000000002,0.0015049764673068166,0.0024396560093323054
1.9400000000000002,0.0014926421749694608,0.0023579517847872574
1.9500000000000002,0.0014818121534458243,0.002284353014870943
1.9600000000000002,0.001472526884811867,0.002219848849267541
1.9700000000000002,0.0014648268511435493,0.0021654284376612302
1.9800000000000002,0.0014587525345168308,0.00212208092973619
1.9900000000000002,0.0014543444170076714,0.002090795475176599
2.,0.0014516429806920317,0.0020725612236666365
2.0100000000000002,0.001450932958603722,0.0020976457925640265
2.02,0.0014519957787724972,0.002135985411293126
2.03,0.0014548571201859625,0.0021867947769518385
2.04,0.0014595426618317234,0.0022492885866380718
2.05,0.001466078082697385,0.002322681537449723
2.06,0.0014744890617705534,0.0024061883264847013
2.07,0.001484801278038833,0.0024990236508409046
2.08,0.0014970404104898305,0.0026004022076162436
2.09,0.0015112321381111498,0.002709538693908613
2.1,0.0015274021398903978,0.0028256478068159254
2.1100000000000003,0.0015472575554518688,0.0029616028251238744
2.12,0.0015690406964412238,0.003102132071413
2.1300000000000003,0.0015926753351408161,0.0032456224499516537
2.14,0.001618085243832995,0.0033904608650081637
2.15,0.0016451941948001135,0.003535034220850876
2.16,0.001673925960324524,0.003677729421748138
2.17,0.0017042043126885757,0.0038169333719682767
2.18,0.0017359530241746225,0.003951032975779645
2.19,0.0017690958670650131,0.00407841513745057
2.2,0.0018035566136421024,0.004197466761249405
2.21,0.0018393927272344454,0.0042879197106241934
2.22,0.001876386186590541,0.004367946539198133
2.23,0.0019144526615050886,0.004437064759774119
2.24,0.001953507821772794,0.00449479188515506
2.25,0.0019934673371883563,0.004540645428143854
2.2600000000000002,0.0020342468775464816,0.004574142901543409
2.27,0.002075762112641869,0.004594801818156624
2.2800000000000002,0.0021179287122692248,0.004602139690786404
2.29,0.002160662346223248,0.004595674032235651
2.3000000000000003,0.002203878684298644,0.004574922355307268
2.31,0.002248494424279543,0.004527661102802291
2.3200000000000003,0.0022933635396082254,0.004465860437525599
2.33,0.0023383410317163933,0.004389749452280219
2.3400000000000003,0.002383281902035758,0.004299557239869155
2.35,0.002428041151998022,0.004195512893095433
2.3600000000000003,0.0024724737830348962,0.004077845504762062
2.37,0.0025164347965780836,0.003946784167672066
2.3800000000000003,0.0025597791940592945,0.0038025579746284515
2.39,0.0026023619769102325,0.0036453960184342467
2.4000000000000004,0.0026440381465626076,0.003475527391892454
2.41,0.0026879708077218573,0.003204539685119582
2.42,0.002730506367438457,0.0029266757058891944
2.43,0.002771299336036616,0.002647536759288326
2.44,0.002810004223840539,0.0023727241504040496
2.45,0.002846275541174437,0.0021078391843233884
2.46,0.0028797677983625146,0.001858483166133415
2.47,0.0029101355057289825,0.0016302574009211548
2.48,0.0029370331735980456,0.0014287631937736757
2.49,0.0029601153122939144,0.0012596018497780085
2.5,0.002979036432140794,0.001128374674021216
2.5100000000000002,0.0029885418106445696,0.001167181618994362
2.52,0.002993492720209489,0.001247458757689316
2.5300000000000002,0.0029938412004214777,0.0013671408105019808
2.54,0.0029895392908664596,0.0015241624978282401
2.5500000000000003,0.0029805390311303586,0.001716458540064004
2.56,0.0029667924607991005,0.0019419636576051493
2.5700000000000003,0.0029482516194586075,0.002198612570847592
2.58,0.002924868546694807,0.0024843400001872034
2.5900000000000003,0.00289659528209362,0.0027970806660199046
2.6,0.002863383865240974,0.0031347692887415627
2.6100000000000003,0.0028138810856124996,0.003610915054736452
2.62,0.0027600293995777674,0.004100873705321879
2.6300000000000003,0.002702466013396047,0.004595575447803578
2.64,0.00264182813332662,0.005085950489487198
2.6500000000000004,0.0025787529656287555,0.005562929037678474
2.66,0.0025138777165617347,0.006017441299683057
2.67,0.0024478395923848303,0.006440417482806661
2.68,0.0023812757993573147,0.006822787794354994
2.69,0.0023148235437384693,0.007155482441633716
2.7,0.0022491200317875633,0.007429431631948547
2.71,0.0021935900732612122,0.007357082147471862
2.72,0.0021395506888912106,0.007224725403984066
2.73,0.0020871065029066972,0.007040169392132274
2.74,0.0020363621395368004,0.0068112221025635735
2.75,0.00198742222301066,0.006545691525925088
2.7600000000000002,0.0019403913775574038,0.0062513856528639
2.77,0.0018953742274061712,0.005936112474027139
2.7800000000000002,0.0018524753967860917,0.0056076799800618814
2.79,0.001811799509926303,0.0052738961616152595
2.8000000000000003,0.0017734511910559353,0.00494256900933435
2.81,0.0017407153675839066,0.004738432021546664
2.8200000000000003,0.0017103236149123074,0.004545281286814031
2.83,0.0016821878116230152,0.004363838401378703
2.8400000000000003,0.0016562198362979018,0.004194824961482895
2.85,0.0016323315675188443,0.004038962563368855
2.8600000000000003,0.0016104348838677145,0.0038969728032788027
2.87,0.001590441663926389,0.0037695772774549827
2.8800000000000003,0.0015722637862767407,0.003657497582139616
2.89,0.0015558131295006453,0.0035614553135749454
2.9000000000000004,0.001541001572179976,0.0034821720680031955
2.91,0.0015263456527126013,0.003472699526438202
2.92,0.00151323715593616,0.00347825768006141
2.93,0.0015016725265042845,0.0034963966048258657
2.94,0.0014916482090706082,0.0035246663766846115
2.95,0.0014831606482887626,0.003560617071590695
2.96,0.001476206288812381,0.003601798765497158
2.97,0.0014707815752950952,0.0036457615343570495
2.98,0.0014668829523905383,0.0036900554541234097
2.99,0.0014645068647523424,0.0037322306007492876
3.,0.00146364975703414,0.003769837050187725
3.0100000000000002,0.0014637227337607073,0.0037264128934798137
3.02,0.0014653430548738577,0.003678005766333704
3.0300000000000002,0.0014685426401865485,0.0036266513195455847
3.04,0.0014733534095117367,0.0035743852039116543
3.0500000000000003,0.0014798072826623797,0.0035232430702281017
3.06,0.001487936179451434,0.0034752605692911246
3.0700000000000003,0.0014977720196918576,0.003432473351896913
3.08,0.0015093467231966065,0.0033969170688416643
3.0900000000000003,0.001522692209778639,0.003370627370921568
3.1,0.0015378403992509114,0.003355639908932821
3.1100000000000003,0.0015561742580294513,0.0034225093095364366
3.12,0.0015762927777118374,0.003500599582459856
3.1300000000000003,0.0015981459964987217,0.0035877937132953504
3.14,0.0016216839525907518,0.003681974687635178
3.1500000000000004,0.0016468566841885796,0.003781025491071612
3.16,0.0016736142294928532,0.003882829109196909
3.1700000000000004,0.0017019066267042245,0.003985268527603342
3.18,0.0017316839140233407,0.004086226731883169
3.19,0.0017628961296508533,0.0041835867076286575
3.2,0.0017954933117874134,0.004275231440432079
3.21,0.0018303717313392649,0.004328111345837166
3.22,0.0018664778463647611,0.0043729166806997745
3.23,0.0019037043476278458,0.004409405131827229
3.24,0.0019419439258924688,0.004437334386026859
3.25,0.001981089271922575,0.00445646213010599
3.2600000000000002,0.0020210330764821134,0.004466546050871949
3.27,0.0020616680303350283,0.0044673438351320646
3.2800000000000002,0.0021028868242452706,0.004458613169693662
3.29,0.0021445821489767826,0.004440111741364071
3.3000000000000003,0.0021866466952935163,0.004411597236950616
3.31,0.00222926828349024,0.0043637000350066485
3.3200000000000003,0.002272026588161847,0.00430585830079068
3.33,0.0023147964134340483,0.004238382891307255
3.3400000000000003,0.0023574525634325635,0.004161584663560906
3.35,0.002399869842283104,0.004075774474556176
3.3600000000000003,0.0024419230541113885,0.003981263181297597
3.37,0.002483487003043128,0.0038783616407897154
3.3800000000000003,0.0025244364932040424,0.003767380710037059
3.39,0.0025646463287198424,0.003648631246044176
3.4000000000000004,0.0026039913137162474,0.0035224241058155943
3.41,0.002645126000673969,0.003346632712158304
3.4200000000000004,0.002684976975766453,0.0031665773219833318
3.43,0.0027232505735221377,0.002985140758004174
3.44,0.002759653128469468,0.002805205842934304
3.45,0.0027938909751368877,0.0026296553994871936
3.46,0.002825670448052836,0.0024613722503763406
3.47,0.002854697881745758,0.0023032392183152113
3.48,0.002880679610744093,0.0021581391260173
3.49,0.0029033219695762873,0.0020289547961960747
3.5,0.0029223312927707796,0.0019185690515650282
3.5100000000000002,0.0029345878689786636,0.0018307637534278707
3.52,0.00294279535411345,0.0017674681987205646
3.5300000000000002,0.0029468313582113,0.0017315107229692987
3.54,0.002946573491308374,0.0017257196617002694
3.5500000000000003,0.002941899363440832,0.0017529233504396705
3.56,0.0029326865846448363,0.0018159501247136931
3.5700000000000003,0.0029188127649565463,0.0019176283200485365
3.58,0.0029001555144121233,0.0020607862719703857
3.5900000000000003,0.002876592443047727,0.002248252316005447
3.6,0.0028480011608995196,0.002482854787679898
3.6100000000000003,0.0028021130824296045,0.003037072105004198
3.62,0.002751688146313295,0.0036277400917787894
3.6300000000000003,0.002697340095651842,0.004241344654288451
3.64,0.0026396826735465046,0.00486437169881785
3.6500000000000004,0.002579329623098533,0.005483307131651768
3.66,0.0025168946874091873,0.006084636859074876
3.6700000000000004,0.0024529916095797164,0.006654846787371951
3.68,0.0023882341327113817,0.007180422822827668
3.69,0.002323235999905435,0.007647850871726778
3.7,0.002258610954263128,0.008043616840354022
3.71,0.0022027178923384218,0.007975309313458164
3.72,0.0021479560005403077,0.007831274992892346
3.73,0.0020944696187304886,0.007620963258973788
3.74,0.0020424030867706566,0.007353823492019677
3.75,0.0019919007445225135,0.007039305072347243
3.7600000000000002,0.0019431069318477528,0.006686857380273663
3.77,0.0018961659886080754,0.006305929796116175
3.7800000000000002,0.0018512222546651748,0.00590597170019195
3.79,0.0018084200698807523,0.00549643247281823
3.8000000000000003,0.001767903774116501,0.0050867614943121845
3.81,0.001733587188298184,0.004835910316849783
3.8200000000000003,0.0017016167178256116,0.004594765411201067
3.83,0.001671908249162662,0.0043637154199948555
3.8400000000000003,0.0016443776687732079,0.004143148985859926
3.85,0.001618940863121127,0.003933454751425097
3.8600000000000003,0.0015955137186702928,0.0037350213593191463
3.87,0.0015740121218845824,0.00354823745217089
3.8800000000000003,0.0015543519592278693,0.0033734916726091088
